Oct. 15, 2024   11:43:48
Cyclic Voltammetry
File: cv l1(-400a125) 200 mvs
Data Source:  Experiment
Instrument Model:  CHI750D
Header: 
Note: 

Init E (V) = 0.125
High E (V) = 0.125
Low E (V) = -0.4
Init P/N = N
Scan Rate (V/s) = 0.2
Segment = 6
Sample Interval (V) = 0.001
Quiet Time (sec) = 2
Sensitivity (A/V) = 1e-5

Segment 1:

Segment 2:

Segment 3:

Segment 4:

Segment 5:

Segment 6:

Potential/V, Current/A

0.125, -6.581e-7
0.124, -1.159e-6
0.123, -4.230e-7
0.122, -5.259e-8
0.121, -8.475e-7
0.120, -1.259e-6
0.119, -5.024e-7
0.118, -1.167e-7
0.117, -9.044e-7
0.116, -1.320e-6
0.115, -5.542e-7
0.114, -1.637e-7
0.113, -9.518e-7
0.112, -1.363e-6
0.111, -5.976e-7
0.110, -2.053e-7
0.109, -9.931e-7
0.108, -1.408e-6
0.107, -6.374e-7
0.106, -2.414e-7
0.105, -1.034e-6
0.104, -1.448e-6
0.103, -6.769e-7
0.102, -2.841e-7
0.101, -1.072e-6
0.100, -1.491e-6
0.099, -7.167e-7
0.098, -3.166e-7
0.097, -1.112e-6
0.096, -1.529e-6
0.095, -7.570e-7
0.094, -3.576e-7
0.093, -1.151e-6
0.092, -1.573e-6
0.091, -7.980e-7
0.090, -3.965e-7
0.089, -1.193e-6
0.088, -1.618e-6
0.087, -8.401e-7
0.086, -4.357e-7
0.085, -1.233e-6
0.084, -1.664e-6
0.083, -8.855e-7
0.082, -4.750e-7
0.081, -1.278e-6
0.080, -1.708e-6
0.079, -9.315e-7
0.078, -5.194e-7
0.077, -1.317e-6
0.076, -1.759e-6
0.075, -9.786e-7
0.074, -5.603e-7
0.073, -1.368e-6
0.072, -1.810e-6
0.071, -1.030e-6
0.070, -6.090e-7
0.069, -1.416e-6
0.068, -1.864e-6
0.067, -1.080e-6
0.066, -6.560e-7
0.065, -1.466e-6
0.064, -1.918e-6
0.063, -1.137e-6
0.062, -7.054e-7
0.061, -1.516e-6
0.060, -1.975e-6
0.059, -1.189e-6
0.058, -7.582e-7
0.057, -1.571e-6
0.056, -2.032e-6
0.055, -1.245e-6
0.054, -8.123e-7
0.053, -1.627e-6
0.052, -2.091e-6
0.051, -1.306e-6
0.050, -8.669e-7
0.049, -1.685e-6
0.048, -2.150e-6
0.047, -1.367e-6
0.046, -9.242e-7
0.045, -1.740e-6
0.044, -2.213e-6
0.043, -1.428e-6
0.042, -9.825e-7
0.041, -1.800e-6
0.040, -2.276e-6
0.039, -1.492e-6
0.038, -1.046e-6
0.037, -1.859e-6
0.036, -2.343e-6
0.035, -1.555e-6
0.034, -1.103e-6
0.033, -1.922e-6
0.032, -2.406e-6
0.031, -1.622e-6
0.030, -1.167e-6
0.029, -1.984e-6
0.028, -2.475e-6
0.027, -1.688e-6
0.026, -1.228e-6
0.025, -2.048e-6
0.024, -2.540e-6
0.023, -1.756e-6
0.022, -1.295e-6
0.021, -2.115e-6
0.020, -2.610e-6
0.019, -1.826e-6
0.018, -1.361e-6
0.017, -2.183e-6
0.016, -2.680e-6
0.015, -1.901e-6
0.014, -1.431e-6
0.013, -2.250e-6
0.012, -2.756e-6
0.011, -1.971e-6
0.010, -1.500e-6
0.009, -2.321e-6
0.008, -2.825e-6
0.007, -2.043e-6
0.006, -1.571e-6
0.005, -2.388e-6
0.004, -2.900e-6
0.003, -2.120e-6
0.002, -1.644e-6
0.001, -2.462e-6
-0.000, -2.959e-6
-0.001, -2.189e-6
-0.002, -1.711e-6
-0.003, -2.529e-6
-0.004, -3.048e-6
-0.005, -2.266e-6
-0.006, -1.787e-6
-0.007, -2.605e-6
-0.008, -3.124e-6
-0.009, -2.346e-6
-0.010, -1.863e-6
-0.011, -2.679e-6
-0.012, -3.203e-6
-0.013, -2.426e-6
-0.014, -1.942e-6
-0.015, -2.758e-6
-0.016, -3.283e-6
-0.017, -2.507e-6
-0.018, -2.020e-6
-0.019, -2.834e-6
-0.020, -3.364e-6
-0.021, -2.589e-6
-0.022, -2.099e-6
-0.023, -2.912e-6
-0.024, -3.446e-6
-0.025, -2.671e-6
-0.026, -2.177e-6
-0.027, -2.992e-6
-0.028, -3.528e-6
-0.029, -2.755e-6
-0.030, -2.261e-6
-0.031, -3.077e-6
-0.032, -3.613e-6
-0.033, -2.843e-6
-0.034, -2.346e-6
-0.035, -3.159e-6
-0.036, -3.700e-6
-0.037, -2.929e-6
-0.038, -2.436e-6
-0.039, -3.246e-6
-0.040, -3.786e-6
-0.041, -3.019e-6
-0.042, -2.520e-6
-0.043, -3.332e-6
-0.044, -3.876e-6
-0.045, -3.112e-6
-0.046, -2.609e-6
-0.047, -3.418e-6
-0.048, -3.965e-6
-0.049, -3.204e-6
-0.050, -2.700e-6
-0.051, -3.509e-6
-0.052, -4.060e-6
-0.053, -3.298e-6
-0.054, -2.792e-6
-0.055, -3.599e-6
-0.056, -4.150e-6
-0.057, -3.394e-6
-0.058, -2.884e-6
-0.059, -3.693e-6
-0.060, -4.245e-6
-0.061, -3.488e-6
-0.062, -2.979e-6
-0.063, -3.786e-6
-0.064, -4.344e-6
-0.065, -3.588e-6
-0.066, -3.077e-6
-0.067, -3.880e-6
-0.068, -4.441e-6
-0.069, -3.687e-6
-0.070, -3.173e-6
-0.071, -3.979e-6
-0.072, -4.538e-6
-0.073, -3.787e-6
-0.074, -3.273e-6
-0.075, -4.077e-6
-0.076, -4.637e-6
-0.077, -3.883e-6
-0.078, -3.372e-6
-0.079, -4.173e-6
-0.080, -4.736e-6
-0.081, -3.990e-6
-0.082, -3.473e-6
-0.083, -4.272e-6
-0.084, -4.841e-6
-0.085, -4.095e-6
-0.086, -3.577e-6
-0.087, -4.374e-6
-0.088, -4.943e-6
-0.089, -4.201e-6
-0.090, -3.681e-6
-0.091, -4.477e-6
-0.092, -5.048e-6
-0.093, -4.306e-6
-0.094, -3.784e-6
-0.095, -4.583e-6
-0.096, -5.152e-6
-0.097, -4.412e-6
-0.098, -3.892e-6
-0.099, -4.685e-6
-0.100, -5.257e-6
-0.101, -4.520e-6
-0.102, -4.001e-6
-0.103, -4.789e-6
-0.104, -5.362e-6
-0.105, -4.631e-6
-0.106, -4.106e-6
-0.107, -4.892e-6
-0.108, -5.469e-6
-0.109, -4.738e-6
-0.110, -4.213e-6
-0.111, -4.996e-6
-0.112, -5.571e-6
-0.113, -4.847e-6
-0.114, -4.318e-6
-0.115, -5.101e-6
-0.116, -5.681e-6
-0.117, -4.955e-6
-0.118, -4.425e-6
-0.119, -5.206e-6
-0.120, -5.784e-6
-0.121, -5.060e-6
-0.122, -4.530e-6
-0.123, -5.307e-6
-0.124, -5.891e-6
-0.125, -5.166e-6
-0.126, -4.636e-6
-0.127, -5.411e-6
-0.128, -5.990e-6
-0.129, -5.269e-6
-0.130, -4.735e-6
-0.131, -5.510e-6
-0.132, -6.095e-6
-0.133, -5.372e-6
-0.134, -4.839e-6
-0.135, -5.611e-6
-0.136, -6.196e-6
-0.137, -5.475e-6
-0.138, -4.941e-6
-0.139, -5.710e-6
-0.140, -6.291e-6
-0.141, -5.577e-6
-0.142, -5.041e-6
-0.143, -5.809e-6
-0.144, -6.390e-6
-0.145, -5.673e-6
-0.146, -5.138e-6
-0.147, -5.901e-6
-0.148, -6.485e-6
-0.149, -5.768e-6
-0.150, -5.231e-6
-0.151, -5.993e-6
-0.152, -6.574e-6
-0.153, -5.859e-6
-0.154, -5.324e-6
-0.155, -6.084e-6
-0.156, -6.666e-6
-0.157, -5.945e-6
-0.158, -5.413e-6
-0.159, -6.172e-6
-0.160, -6.748e-6
-0.161, -6.032e-6
-0.162, -5.498e-6
-0.163, -6.252e-6
-0.164, -6.830e-6
-0.165, -6.115e-6
-0.166, -5.578e-6
-0.167, -6.332e-6
-0.168, -6.907e-6
-0.169, -6.193e-6
-0.170, -5.656e-6
-0.171, -6.405e-6
-0.172, -6.979e-6
-0.173, -6.265e-6
-0.174, -5.729e-6
-0.175, -6.475e-6
-0.176, -7.046e-6
-0.177, -6.334e-6
-0.178, -5.795e-6
-0.179, -6.536e-6
-0.180, -7.108e-6
-0.181, -6.395e-6
-0.182, -5.857e-6
-0.183, -6.600e-6
-0.184, -7.165e-6
-0.185, -6.453e-6
-0.186, -5.917e-6
-0.187, -6.656e-6
-0.188, -7.219e-6
-0.189, -6.504e-6
-0.190, -5.968e-6
-0.191, -6.708e-6
-0.192, -7.270e-6
-0.193, -6.556e-6
-0.194, -6.019e-6
-0.195, -6.754e-6
-0.196, -7.313e-6
-0.197, -6.597e-6
-0.198, -6.062e-6
-0.199, -6.798e-6
-0.200, -7.345e-6
-0.201, -6.635e-6
-0.202, -6.100e-6
-0.203, -6.833e-6
-0.204, -7.382e-6
-0.205, -6.683e-6
-0.206, -6.140e-6
-0.207, -6.868e-6
-0.208, -7.415e-6
-0.209, -6.696e-6
-0.210, -6.165e-6
-0.211, -6.893e-6
-0.212, -7.437e-6
-0.213, -6.718e-6
-0.214, -6.187e-6
-0.215, -6.915e-6
-0.216, -7.453e-6
-0.217, -6.737e-6
-0.218, -6.205e-6
-0.219, -6.931e-6
-0.220, -7.466e-6
-0.221, -6.749e-6
-0.222, -6.217e-6
-0.223, -6.942e-6
-0.224, -7.477e-6
-0.225, -6.756e-6
-0.226, -6.226e-6
-0.227, -6.950e-6
-0.228, -7.482e-6
-0.229, -6.758e-6
-0.230, -6.229e-6
-0.231, -6.951e-6
-0.232, -7.479e-6
-0.233, -6.757e-6
-0.234, -6.231e-6
-0.235, -6.955e-6
-0.236, -7.480e-6
-0.237, -6.756e-6
-0.238, -6.230e-6
-0.239, -6.953e-6
-0.240, -7.473e-6
-0.241, -6.750e-6
-0.242, -6.227e-6
-0.243, -6.951e-6
-0.244, -7.470e-6
-0.245, -6.745e-6
-0.246, -6.222e-6
-0.247, -6.945e-6
-0.248, -7.460e-6
-0.249, -6.737e-6
-0.250, -6.214e-6
-0.251, -6.936e-6
-0.252, -7.453e-6
-0.253, -6.728e-6
-0.254, -6.206e-6
-0.255, -6.927e-6
-0.256, -7.448e-6
-0.257, -6.719e-6
-0.258, -6.199e-6
-0.259, -6.920e-6
-0.260, -7.439e-6
-0.261, -6.712e-6
-0.262, -6.189e-6
-0.263, -6.917e-6
-0.264, -7.430e-6
-0.265, -6.703e-6
-0.266, -6.181e-6
-0.267, -6.905e-6
-0.268, -7.427e-6
-0.269, -6.700e-6
-0.270, -6.175e-6
-0.271, -6.902e-6
-0.272, -7.421e-6
-0.273, -6.692e-6
-0.274, -6.174e-6
-0.275, -6.899e-6
-0.276, -7.421e-6
-0.277, -6.689e-6
-0.278, -6.168e-6
-0.279, -6.899e-6
-0.280, -7.422e-6
-0.281, -6.691e-6
-0.282, -6.165e-6
-0.283, -6.899e-6
-0.284, -7.424e-6
-0.285, -6.695e-6
-0.286, -6.170e-6
-0.287, -6.904e-6
-0.288, -7.432e-6
-0.289, -6.704e-6
-0.290, -6.177e-6
-0.291, -6.912e-6
-0.292, -7.447e-6
-0.293, -6.716e-6
-0.294, -6.188e-6
-0.295, -6.927e-6
-0.296, -7.464e-6
-0.297, -6.734e-6
-0.298, -6.202e-6
-0.299, -6.942e-6
-0.300, -7.486e-6
-0.301, -6.755e-6
-0.302, -6.220e-6
-0.303, -6.965e-6
-0.304, -7.510e-6
-0.305, -6.780e-6
-0.306, -6.243e-6
-0.307, -6.993e-6
-0.308, -7.543e-6
-0.309, -6.810e-6
-0.310, -6.272e-6
-0.311, -7.019e-6
-0.312, -7.577e-6
-0.313, -6.846e-6
-0.314, -6.304e-6
-0.315, -7.053e-6
-0.316, -7.617e-6
-0.317, -6.883e-6
-0.318, -6.339e-6
-0.319, -7.092e-6
-0.320, -7.662e-6
-0.321, -6.929e-6
-0.322, -6.380e-6
-0.323, -7.136e-6
-0.324, -7.708e-6
-0.325, -6.978e-6
-0.326, -6.425e-6
-0.327, -7.183e-6
-0.328, -7.760e-6
-0.329, -7.029e-6
-0.330, -6.474e-6
-0.331, -7.234e-6
-0.332, -7.818e-6
-0.333, -7.081e-6
-0.334, -6.525e-6
-0.335, -7.288e-6
-0.336, -7.875e-6
-0.337, -7.144e-6
-0.338, -6.581e-6
-0.339, -7.346e-6
-0.340, -7.939e-6
-0.341, -7.207e-6
-0.342, -6.642e-6
-0.343, -7.407e-6
-0.344, -8.005e-6
-0.345, -7.277e-6
-0.346, -6.707e-6
-0.347, -7.474e-6
-0.348, -8.078e-6
-0.349, -7.345e-6
-0.350, -6.773e-6
-0.351, -7.544e-6
-0.352, -8.150e-6
-0.353, -7.419e-6
-0.354, -6.842e-6
-0.355, -7.613e-6
-0.356, -8.226e-6
-0.357, -7.491e-6
-0.358, -6.917e-6
-0.359, -7.686e-6
-0.360, -8.303e-6
-0.361, -7.572e-6
-0.362, -6.989e-6
-0.363, -7.761e-6
-0.364, -8.385e-6
-0.365, -7.653e-6
-0.366, -7.064e-6
-0.367, -7.839e-6
-0.368, -8.465e-6
-0.369, -7.734e-6
-0.370, -7.141e-6
-0.371, -7.919e-6
-0.372, -8.549e-6
-0.373, -7.817e-6
-0.374, -7.222e-6
-0.375, -7.998e-6
-0.376, -8.630e-6
-0.377, -7.902e-6
-0.378, -7.303e-6
-0.379, -8.078e-6
-0.380, -8.714e-6
-0.381, -7.985e-6
-0.382, -7.383e-6
-0.383, -8.160e-6
-0.384, -8.794e-6
-0.385, -8.068e-6
-0.386, -7.464e-6
-0.387, -8.236e-6
-0.388, -8.884e-6
-0.389, -8.152e-6
-0.390, -7.547e-6
-0.391, -8.321e-6
-0.392, -8.966e-6
-0.393, -8.241e-6
-0.394, -7.629e-6
-0.395, -8.400e-6
-0.396, -9.051e-6
-0.397, -8.328e-6
-0.398, -7.711e-6
-0.399, -8.484e-6
-0.400, -8.947e-6
-0.399, -7.918e-6
-0.398, -7.134e-6
-0.397, -7.748e-6
-0.396, -8.240e-6
-0.395, -7.369e-6
-0.394, -6.642e-6
-0.393, -7.285e-6
-0.392, -7.789e-6
-0.391, -6.927e-6
-0.390, -6.227e-6
-0.389, -6.890e-6
-0.388, -7.389e-6
-0.387, -6.538e-6
-0.386, -5.863e-6
-0.385, -6.530e-6
-0.384, -7.038e-6
-0.383, -6.194e-6
-0.382, -5.532e-6
-0.381, -6.211e-6
-0.380, -6.714e-6
-0.379, -5.878e-6
-0.378, -5.229e-6
-0.377, -5.915e-6
-0.376, -6.417e-6
-0.375, -5.587e-6
-0.374, -4.954e-6
-0.373, -5.646e-6
-0.372, -6.143e-6
-0.371, -5.317e-6
-0.370, -4.696e-6
-0.369, -5.392e-6
-0.368, -5.891e-6
-0.367, -5.069e-6
-0.366, -4.461e-6
-0.365, -5.158e-6
-0.364, -5.653e-6
-0.363, -4.842e-6
-0.362, -4.239e-6
-0.361, -4.940e-6
-0.360, -5.436e-6
-0.359, -4.623e-6
-0.358, -4.030e-6
-0.357, -4.736e-6
-0.356, -5.229e-6
-0.355, -4.422e-6
-0.354, -3.836e-6
-0.353, -4.545e-6
-0.352, -5.034e-6
-0.351, -4.233e-6
-0.350, -3.654e-6
-0.349, -4.366e-6
-0.348, -4.852e-6
-0.347, -4.053e-6
-0.346, -3.482e-6
-0.345, -4.191e-6
-0.344, -4.682e-6
-0.343, -3.883e-6
-0.342, -3.321e-6
-0.341, -4.034e-6
-0.340, -4.515e-6
-0.339, -3.724e-6
-0.338, -3.167e-6
-0.337, -3.881e-6
-0.336, -4.365e-6
-0.335, -3.573e-6
-0.334, -3.023e-6
-0.333, -3.739e-6
-0.332, -4.220e-6
-0.331, -3.435e-6
-0.330, -2.884e-6
-0.329, -3.600e-6
-0.328, -4.080e-6
-0.327, -3.299e-6
-0.326, -2.753e-6
-0.325, -3.469e-6
-0.324, -3.947e-6
-0.323, -3.170e-6
-0.322, -2.631e-6
-0.321, -3.344e-6
-0.320, -3.821e-6
-0.319, -3.047e-6
-0.318, -2.511e-6
-0.317, -3.227e-6
-0.316, -3.703e-6
-0.315, -2.933e-6
-0.314, -2.400e-6
-0.313, -3.112e-6
-0.312, -3.589e-6
-0.311, -2.820e-6
-0.310, -2.294e-6
-0.309, -3.006e-6
-0.308, -3.479e-6
-0.307, -2.711e-6
-0.306, -2.190e-6
-0.305, -2.902e-6
-0.304, -3.375e-6
-0.303, -2.614e-6
-0.302, -2.092e-6
-0.301, -2.805e-6
-0.300, -3.278e-6
-0.299, -2.520e-6
-0.298, -2.000e-6
-0.297, -2.709e-6
-0.296, -3.186e-6
-0.295, -2.426e-6
-0.294, -1.907e-6
-0.293, -2.623e-6
-0.292, -3.093e-6
-0.291, -2.341e-6
-0.290, -1.825e-6
-0.289, -2.535e-6
-0.288, -3.007e-6
-0.287, -2.258e-6
-0.286, -1.745e-6
-0.285, -2.451e-6
-0.284, -2.924e-6
-0.283, -2.178e-6
-0.282, -1.667e-6
-0.281, -2.376e-6
-0.280, -2.847e-6
-0.279, -2.101e-6
-0.278, -1.593e-6
-0.277, -2.298e-6
-0.276, -2.772e-6
-0.275, -2.028e-6
-0.274, -1.520e-6
-0.273, -2.225e-6
-0.272, -2.699e-6
-0.271, -1.957e-6
-0.270, -1.452e-6
-0.269, -2.155e-6
-0.268, -2.625e-6
-0.267, -1.891e-6
-0.266, -1.387e-6
-0.265, -2.088e-6
-0.264, -2.562e-6
-0.263, -1.825e-6
-0.262, -1.322e-6
-0.261, -2.024e-6
-0.260, -2.494e-6
-0.259, -1.764e-6
-0.258, -1.263e-6
-0.257, -1.960e-6
-0.256, -2.431e-6
-0.255, -1.703e-6
-0.254, -1.202e-6
-0.253, -1.901e-6
-0.252, -2.370e-6
-0.251, -1.648e-6
-0.250, -1.145e-6
-0.249, -1.839e-6
-0.248, -2.314e-6
-0.247, -1.591e-6
-0.246, -1.089e-6
-0.245, -1.786e-6
-0.244, -2.256e-6
-0.243, -1.533e-6
-0.242, -1.036e-6
-0.241, -1.730e-6
-0.240, -2.202e-6
-0.239, -1.484e-6
-0.238, -9.851e-7
-0.237, -1.676e-6
-0.236, -2.148e-6
-0.235, -1.434e-6
-0.234, -9.344e-7
-0.233, -1.623e-6
-0.232, -2.099e-6
-0.231, -1.385e-6
-0.230, -8.876e-7
-0.229, -1.573e-6
-0.228, -2.049e-6
-0.227, -1.337e-6
-0.226, -8.390e-7
-0.225, -1.522e-6
-0.224, -2.000e-6
-0.223, -1.290e-6
-0.222, -7.911e-7
-0.221, -1.477e-6
-0.220, -1.951e-6
-0.219, -1.245e-6
-0.218, -7.450e-7
-0.217, -1.428e-6
-0.216, -1.904e-6
-0.215, -1.199e-6
-0.214, -7.018e-7
-0.213, -1.383e-6
-0.212, -1.860e-6
-0.211, -1.154e-6
-0.210, -6.582e-7
-0.209, -1.338e-6
-0.208, -1.817e-6
-0.207, -1.113e-6
-0.206, -6.164e-7
-0.205, -1.282e-6
-0.204, -1.767e-6
-0.203, -1.071e-6
-0.202, -5.713e-7
-0.201, -1.248e-6
-0.200, -1.729e-6
-0.199, -1.030e-6
-0.198, -5.307e-7
-0.197, -1.207e-6
-0.196, -1.686e-6
-0.195, -9.910e-7
-0.194, -4.901e-7
-0.193, -1.165e-6
-0.192, -1.646e-6
-0.191, -9.510e-7
-0.190, -4.506e-7
-0.189, -1.124e-6
-0.188, -1.605e-6
-0.187, -9.129e-7
-0.186, -4.132e-7
-0.185, -1.083e-6
-0.184, -1.566e-6
-0.183, -8.748e-7
-0.182, -3.743e-7
-0.181, -1.044e-6
-0.180, -1.528e-6
-0.179, -8.435e-7
-0.178, -3.368e-7
-0.177, -1.006e-6
-0.176, -1.491e-6
-0.175, -8.011e-7
-0.174, -3.009e-7
-0.173, -9.669e-7
-0.172, -1.451e-6
-0.171, -7.667e-7
-0.170, -2.653e-7
-0.169, -9.289e-7
-0.168, -1.416e-6
-0.167, -7.310e-7
-0.166, -2.266e-7
-0.165, -8.907e-7
-0.164, -1.379e-6
-0.163, -6.974e-7
-0.162, -1.919e-7
-0.161, -8.542e-7
-0.160, -1.346e-6
-0.159, -6.613e-7
-0.158, -1.572e-7
-0.157, -8.200e-7
-0.156, -1.309e-6
-0.155, -6.312e-7
-0.154, -1.211e-7
-0.153, -7.809e-7
-0.152, -1.277e-6
-0.151, -5.975e-7
-0.150, -8.936e-8
-0.149, -7.483e-7
-0.148, -1.241e-6
-0.147, -5.659e-7
-0.146, -5.539e-8
-0.145, -7.133e-7
-0.144, -1.210e-6
-0.143, -5.326e-7
-0.142, -2.269e-8
-0.141, -6.784e-7
-0.140, -1.175e-6
-0.139, -5.029e-7
-0.138, 8.903e-9
-0.137, -6.462e-7
-0.136, -1.143e-6
-0.135, -4.727e-7
-0.134, 4.196e-8
-0.133, -6.138e-7
-0.132, -1.111e-6
-0.131, -4.427e-7
-0.130, 7.220e-8
-0.129, -5.792e-7
-0.128, -1.085e-6
-0.127, -4.135e-7
-0.126, 1.012e-7
-0.125, -5.499e-7
-0.124, -1.049e-6
-0.123, -3.860e-7
-0.122, 1.327e-7
-0.121, -5.172e-7
-0.120, -1.021e-6
-0.119, -3.555e-7
-0.118, 1.629e-7
-0.117, -4.872e-7
-0.116, -9.915e-7
-0.115, -3.263e-7
-0.114, 1.923e-7
-0.113, -4.558e-7
-0.112, -9.641e-7
-0.111, -2.986e-7
-0.110, 2.213e-7
-0.109, -4.267e-7
-0.108, -9.333e-7
-0.107, -2.729e-7
-0.106, 2.488e-7
-0.105, -3.963e-7
-0.104, -9.078e-7
-0.103, -2.440e-7
-0.102, 2.801e-7
-0.101, -3.679e-7
-0.100, -8.785e-7
-0.099, -2.197e-7
-0.098, 3.052e-7
-0.097, -3.391e-7
-0.096, -8.529e-7
-0.095, -1.929e-7
-0.094, 3.318e-7
-0.093, -3.110e-7
-0.092, -8.250e-7
-0.091, -1.696e-7
-0.090, 3.603e-7
-0.089, -2.818e-7
-0.088, -7.994e-7
-0.087, -1.446e-7
-0.086, 3.846e-7
-0.085, -2.554e-7
-0.084, -7.733e-7
-0.083, -1.205e-7
-0.082, 4.106e-7
-0.081, -2.272e-7
-0.080, -7.495e-7
-0.079, -9.473e-8
-0.078, 4.365e-7
-0.077, -2.048e-7
-0.076, -7.258e-7
-0.075, -7.310e-8
-0.074, 4.605e-7
-0.073, -1.763e-7
-0.072, -7.017e-7
-0.071, -4.952e-8
-0.070, 4.870e-7
-0.069, -1.512e-7
-0.068, -6.770e-7
-0.067, -2.743e-8
-0.066, 5.094e-7
-0.065, -1.258e-7
-0.064, -6.517e-7
-0.063, -2.503e-9
-0.062, 5.336e-7
-0.061, -1.010e-7
-0.060, -6.290e-7
-0.059, 1.633e-8
-0.058, 5.583e-7
-0.057, -7.412e-8
-0.056, -6.072e-7
-0.055, 3.968e-8
-0.054, 5.815e-7
-0.053, -5.174e-8
-0.052, -5.831e-7
-0.051, 6.113e-8
-0.050, 6.041e-7
-0.049, -2.685e-8
-0.048, -5.623e-7
-0.047, 8.211e-8
-0.046, 6.259e-7
-0.045, -2.250e-9
-0.044, -5.396e-7
-0.043, 1.019e-7
-0.042, 6.496e-7
-0.041, 2.104e-8
-0.040, -5.191e-7
-0.039, 1.244e-7
-0.038, 6.717e-7
-0.037, 4.352e-8
-0.036, -4.963e-7
-0.035, 1.434e-7
-0.034, 6.919e-7
-0.033, 6.717e-8
-0.032, -4.754e-7
-0.031, 1.633e-7
-0.030, 7.136e-7
-0.029, 8.905e-8
-0.028, -4.547e-7
-0.027, 1.821e-7
-0.026, 7.331e-7
-0.025, 1.104e-7
-0.024, -4.357e-7
-0.023, 2.013e-7
-0.022, 7.552e-7
-0.021, 1.320e-7
-0.020, -4.137e-7
-0.019, 2.201e-7
-0.018, 7.767e-7
-0.017, 1.575e-7
-0.016, -3.934e-7
-0.015, 2.384e-7
-0.014, 7.971e-7
-0.013, 1.776e-7
-0.012, -3.701e-7
-0.011, 2.580e-7
-0.010, 8.171e-7
-0.009, 2.001e-7
-0.008, -3.536e-7
-0.007, 2.769e-7
-0.006, 8.374e-7
-0.005, 2.199e-7
-0.004, -3.315e-7
-0.003, 2.935e-7
-0.002, 8.580e-7
-0.001, 2.428e-7
-0.000, -3.268e-7
0.001, 3.096e-7
0.002, 8.740e-7
0.003, 2.602e-7
0.004, -2.953e-7
0.005, 3.299e-7
0.006, 8.952e-7
0.007, 2.831e-7
0.008, -2.767e-7
0.009, 3.478e-7
0.010, 9.146e-7
0.011, 3.038e-7
0.012, -2.559e-7
0.013, 3.671e-7
0.014, 9.350e-7
0.015, 3.258e-7
0.016, -2.383e-7
0.017, 3.839e-7
0.018, 9.541e-7
0.019, 3.452e-7
0.020, -2.169e-7
0.021, 3.992e-7
0.022, 9.755e-7
0.023, 3.656e-7
0.024, -2.003e-7
0.025, 4.180e-7
0.026, 9.911e-7
0.027, 3.839e-7
0.028, -1.818e-7
0.029, 4.343e-7
0.030, 1.012e-6
0.031, 4.067e-7
0.032, -1.635e-7
0.033, 4.543e-7
0.034, 1.031e-6
0.035, 4.264e-7
0.036, -1.426e-7
0.037, 4.680e-7
0.038, 1.051e-6
0.039, 4.490e-7
0.040, -1.255e-7
0.041, 4.871e-7
0.042, 1.070e-6
0.043, 4.676e-7
0.044, -1.070e-7
0.045, 5.051e-7
0.046, 1.087e-6
0.047, 4.887e-7
0.048, -9.061e-8
0.049, 5.217e-7
0.050, 1.106e-6
0.051, 5.080e-7
0.052, -6.989e-8
0.053, 5.370e-7
0.054, 1.126e-6
0.055, 5.287e-7
0.056, -5.235e-8
0.057, 5.554e-7
0.058, 1.144e-6
0.059, 5.480e-7
0.060, -3.298e-8
0.061, 5.704e-7
0.062, 1.162e-6
0.063, 5.706e-7
0.064, -1.452e-8
0.065, 5.903e-7
0.066, 1.182e-6
0.067, 5.901e-7
0.068, 3.258e-9
0.069, 6.051e-7
0.070, 1.200e-6
0.071, 6.103e-7
0.072, 2.075e-8
0.073, 6.226e-7
0.074, 1.219e-6
0.075, 6.291e-7
0.076, 3.927e-8
0.077, 6.367e-7
0.078, 1.236e-6
0.079, 6.496e-7
0.080, 5.641e-8
0.081, 6.575e-7
0.082, 1.255e-6
0.083, 6.685e-7
0.084, 7.728e-8
0.085, 6.726e-7
0.086, 1.273e-6
0.087, 6.900e-7
0.088, 9.379e-8
0.089, 6.902e-7
0.090, 1.294e-6
0.091, 7.110e-7
0.092, 1.128e-7
0.093, 7.076e-7
0.094, 1.312e-6
0.095, 7.310e-7
0.096, 1.308e-7
0.097, 7.243e-7
0.098, 1.332e-6
0.099, 7.504e-7
0.100, 1.502e-7
0.101, 7.403e-7
0.102, 1.350e-6
0.103, 7.760e-7
0.104, 1.675e-7
0.105, 7.587e-7
0.106, 1.368e-6
0.107, 7.939e-7
0.108, 1.887e-7
0.109, 7.751e-7
0.110, 1.387e-6
0.111, 8.145e-7
0.112, 2.067e-7
0.113, 7.927e-7
0.114, 1.405e-6
0.115, 8.375e-7
0.116, 2.272e-7
0.117, 8.090e-7
0.118, 1.425e-6
0.119, 8.569e-7
0.120, 2.438e-7
0.121, 8.257e-7
0.122, 1.446e-6
0.123, 8.778e-7
0.124, 2.648e-7
0.125, 6.857e-7
0.124, 1.098e-6
0.123, 4.470e-7
0.122, -2.241e-7
0.121, 3.024e-7
0.120, 8.766e-7
0.119, 2.684e-7
0.118, -3.737e-7
0.117, 1.701e-7
0.116, 7.492e-7
0.115, 1.518e-7
0.114, -4.762e-7
0.113, 7.242e-8
0.112, 6.552e-7
0.111, 6.398e-8
0.110, -5.561e-7
0.109, -4.411e-9
0.108, 5.782e-7
0.107, -6.912e-9
0.106, -6.239e-7
0.105, -7.028e-8
0.104, 5.131e-7
0.103, -7.284e-8
0.102, -6.844e-7
0.101, -1.257e-7
0.100, 4.540e-7
0.099, -1.237e-7
0.098, -7.311e-7
0.097, -1.766e-7
0.096, 4.040e-7
0.095, -1.735e-7
0.094, -7.766e-7
0.093, -2.210e-7
0.092, 3.593e-7
0.091, -2.145e-7
0.090, -8.175e-7
0.089, -2.623e-7
0.088, 3.175e-7
0.087, -2.545e-7
0.086, -8.518e-7
0.085, -2.998e-7
0.084, 2.795e-7
0.083, -2.882e-7
0.082, -8.880e-7
0.081, -3.339e-7
0.080, 2.473e-7
0.079, -3.221e-7
0.078, -9.177e-7
0.077, -3.607e-7
0.076, 2.146e-7
0.075, -3.504e-7
0.074, -9.470e-7
0.073, -3.951e-7
0.072, 1.859e-7
0.071, -3.810e-7
0.070, -9.719e-7
0.069, -4.221e-7
0.068, 1.564e-7
0.067, -4.063e-7
0.066, -9.987e-7
0.065, -4.495e-7
0.064, 1.286e-7
0.063, -4.333e-7
0.062, -1.025e-6
0.061, -4.742e-7
0.060, 1.054e-7
0.059, -4.552e-7
0.058, -1.048e-6
0.057, -4.992e-7
0.056, 8.071e-8
0.055, -4.772e-7
0.054, -1.069e-6
0.053, -5.223e-7
0.052, 5.614e-8
0.051, -5.001e-7
0.050, -1.092e-6
0.049, -5.458e-7
0.048, 3.648e-8
0.047, -5.200e-7
0.046, -1.114e-6
0.045, -5.677e-7
0.044, 1.338e-8
0.043, -5.389e-7
0.042, -1.132e-6
0.041, -5.891e-7
0.040, -6.883e-9
0.039, -5.606e-7
0.038, -1.155e-6
0.037, -6.092e-7
0.036, -2.818e-8
0.035, -5.775e-7
0.034, -1.173e-6
0.033, -6.305e-7
0.032, -4.644e-8
0.031, -5.974e-7
0.030, -1.193e-6
0.029, -6.504e-7
0.028, -6.674e-8
0.027, -6.143e-7
0.026, -1.209e-6
0.025, -6.704e-7
0.024, -8.359e-8
0.023, -6.325e-7
0.022, -1.230e-6
0.021, -6.897e-7
0.020, -1.035e-7
0.019, -6.492e-7
0.018, -1.249e-6
0.017, -7.101e-7
0.016, -1.203e-7
0.015, -6.687e-7
0.014, -1.267e-6
0.013, -7.313e-7
0.012, -1.410e-7
0.011, -6.845e-7
0.010, -1.285e-6
0.009, -7.502e-7
0.008, -1.582e-7
0.007, -7.021e-7
0.006, -1.305e-6
0.005, -7.685e-7
0.004, -1.774e-7
0.003, -7.181e-7
0.002, -1.322e-6
0.001, -7.877e-7
0.000, -1.832e-7
-0.001, -7.319e-7
-0.002, -1.340e-6
-0.003, -8.061e-7
-0.004, -2.119e-7
-0.005, -7.505e-7
-0.006, -1.360e-6
-0.007, -8.271e-7
-0.008, -2.295e-7
-0.009, -7.703e-7
-0.010, -1.378e-6
-0.011, -8.472e-7
-0.012, -2.500e-7
-0.013, -7.873e-7
-0.014, -1.398e-6
-0.015, -8.699e-7
-0.016, -2.671e-7
-0.017, -8.037e-7
-0.018, -1.417e-6
-0.019, -8.884e-7
-0.020, -2.875e-7
-0.021, -8.224e-7
-0.022, -1.436e-6
-0.023, -9.093e-7
-0.024, -3.055e-7
-0.025, -8.377e-7
-0.026, -1.453e-6
-0.027, -9.306e-7
-0.028, -3.258e-7
-0.029, -8.547e-7
-0.030, -1.474e-6
-0.031, -9.542e-7
-0.032, -3.445e-7
-0.033, -8.750e-7
-0.034, -1.497e-6
-0.035, -9.729e-7
-0.036, -3.654e-7
-0.037, -8.936e-7
-0.038, -1.518e-6
-0.039, -9.980e-7
-0.040, -3.846e-7
-0.041, -9.148e-7
-0.042, -1.537e-6
-0.043, -1.018e-6
-0.044, -4.064e-7
-0.045, -9.327e-7
-0.046, -1.559e-6
-0.047, -1.043e-6
-0.048, -4.273e-7
-0.049, -9.523e-7
-0.050, -1.582e-6
-0.051, -1.068e-6
-0.052, -4.487e-7
-0.053, -9.741e-7
-0.054, -1.604e-6
-0.055, -1.092e-6
-0.056, -4.691e-7
-0.057, -9.961e-7
-0.058, -1.628e-6
-0.059, -1.116e-6
-0.060, -4.940e-7
-0.061, -1.015e-6
-0.062, -1.651e-6
-0.063, -1.141e-6
-0.064, -5.171e-7
-0.065, -1.039e-6
-0.066, -1.675e-6
-0.067, -1.166e-6
-0.068, -5.426e-7
-0.069, -1.061e-6
-0.070, -1.698e-6
-0.071, -1.195e-6
-0.072, -5.645e-7
-0.073, -1.083e-6
-0.074, -1.724e-6
-0.075, -1.222e-6
-0.076, -5.904e-7
-0.077, -1.104e-6
-0.078, -1.750e-6
-0.079, -1.248e-6
-0.080, -6.154e-7
-0.081, -1.131e-6
-0.082, -1.778e-6
-0.083, -1.278e-6
-0.084, -6.438e-7
-0.085, -1.157e-6
-0.086, -1.806e-6
-0.087, -1.308e-6
-0.088, -6.695e-7
-0.089, -1.185e-6
-0.090, -1.837e-6
-0.091, -1.337e-6
-0.092, -6.993e-7
-0.093, -1.210e-6
-0.094, -1.863e-6
-0.095, -1.371e-6
-0.096, -7.288e-7
-0.097, -1.237e-6
-0.098, -1.893e-6
-0.099, -1.402e-6
-0.100, -7.583e-7
-0.101, -1.265e-6
-0.102, -1.928e-6
-0.103, -1.438e-6
-0.104, -7.890e-7
-0.105, -1.295e-6
-0.106, -1.958e-6
-0.107, -1.469e-6
-0.108, -8.237e-7
-0.109, -1.325e-6
-0.110, -1.990e-6
-0.111, -1.506e-6
-0.112, -8.533e-7
-0.113, -1.358e-6
-0.114, -2.023e-6
-0.115, -1.543e-6
-0.116, -8.892e-7
-0.117, -1.389e-6
-0.118, -2.059e-6
-0.119, -1.580e-6
-0.120, -9.230e-7
-0.121, -1.423e-6
-0.122, -2.095e-6
-0.123, -1.617e-6
-0.124, -9.601e-7
-0.125, -1.456e-6
-0.126, -2.132e-6
-0.127, -1.656e-6
-0.128, -9.939e-7
-0.129, -1.491e-6
-0.130, -2.169e-6
-0.131, -1.694e-6
-0.132, -1.035e-6
-0.133, -1.527e-6
-0.134, -2.209e-6
-0.135, -1.738e-6
-0.136, -1.074e-6
-0.137, -1.564e-6
-0.138, -2.249e-6
-0.139, -1.778e-6
-0.140, -1.116e-6
-0.141, -1.605e-6
-0.142, -2.289e-6
-0.143, -1.824e-6
-0.144, -1.159e-6
-0.145, -1.643e-6
-0.146, -2.331e-6
-0.147, -1.869e-6
-0.148, -1.201e-6
-0.149, -1.683e-6
-0.150, -2.375e-6
-0.151, -1.916e-6
-0.152, -1.245e-6
-0.153, -1.726e-6
-0.154, -2.420e-6
-0.155, -1.962e-6
-0.156, -1.291e-6
-0.157, -1.769e-6
-0.158, -2.465e-6
-0.159, -2.010e-6
-0.160, -1.338e-6
-0.161, -1.812e-6
-0.162, -2.511e-6
-0.163, -2.059e-6
-0.164, -1.386e-6
-0.165, -1.857e-6
-0.166, -2.559e-6
-0.167, -2.110e-6
-0.168, -1.434e-6
-0.169, -1.906e-6
-0.170, -2.605e-6
-0.171, -2.162e-6
-0.172, -1.485e-6
-0.173, -1.952e-6
-0.174, -2.655e-6
-0.175, -2.215e-6
-0.176, -1.534e-6
-0.177, -2.001e-6
-0.178, -2.706e-6
-0.179, -2.262e-6
-0.180, -1.586e-6
-0.181, -2.047e-6
-0.182, -2.756e-6
-0.183, -2.320e-6
-0.184, -1.639e-6
-0.185, -2.098e-6
-0.186, -2.810e-6
-0.187, -2.374e-6
-0.188, -1.693e-6
-0.189, -2.149e-6
-0.190, -2.861e-6
-0.191, -2.434e-6
-0.192, -1.747e-6
-0.193, -2.203e-6
-0.194, -2.916e-6
-0.195, -2.489e-6
-0.196, -1.801e-6
-0.197, -2.255e-6
-0.198, -2.971e-6
-0.199, -2.547e-6
-0.200, -1.858e-6
-0.201, -2.308e-6
-0.202, -3.026e-6
-0.203, -2.605e-6
-0.204, -1.917e-6
-0.205, -2.374e-6
-0.206, -3.086e-6
-0.207, -2.667e-6
-0.208, -1.973e-6
-0.209, -2.420e-6
-0.210, -3.140e-6
-0.211, -2.725e-6
-0.212, -2.032e-6
-0.213, -2.474e-6
-0.214, -3.196e-6
-0.215, -2.785e-6
-0.216, -2.088e-6
-0.217, -2.531e-6
-0.218, -3.255e-6
-0.219, -2.844e-6
-0.220, -2.148e-6
-0.221, -2.585e-6
-0.222, -3.310e-6
-0.223, -2.904e-6
-0.224, -2.206e-6
-0.225, -2.642e-6
-0.226, -3.366e-6
-0.227, -2.962e-6
-0.228, -2.266e-6
-0.229, -2.697e-6
-0.230, -3.420e-6
-0.231, -3.022e-6
-0.232, -2.321e-6
-0.233, -2.751e-6
-0.234, -3.480e-6
-0.235, -3.082e-6
-0.236, -2.380e-6
-0.237, -2.807e-6
-0.238, -3.536e-6
-0.239, -3.143e-6
-0.240, -2.438e-6
-0.241, -2.864e-6
-0.242, -3.594e-6
-0.243, -3.202e-6
-0.244, -2.498e-6
-0.245, -2.918e-6
-0.246, -3.650e-6
-0.247, -3.261e-6
-0.248, -2.554e-6
-0.249, -2.975e-6
-0.250, -3.706e-6
-0.251, -3.319e-6
-0.252, -2.613e-6
-0.253, -3.027e-6
-0.254, -3.762e-6
-0.255, -3.376e-6
-0.256, -2.671e-6
-0.257, -3.083e-6
-0.258, -3.817e-6
-0.259, -3.433e-6
-0.260, -2.726e-6
-0.261, -3.135e-6
-0.262, -3.871e-6
-0.263, -3.492e-6
-0.264, -2.781e-6
-0.265, -3.189e-6
-0.266, -3.924e-6
-0.267, -3.546e-6
-0.268, -2.838e-6
-0.269, -3.242e-6
-0.270, -3.978e-6
-0.271, -3.603e-6
-0.272, -2.890e-6
-0.273, -3.292e-6
-0.274, -4.033e-6
-0.275, -3.658e-6
-0.276, -2.945e-6
-0.277, -3.342e-6
-0.278, -4.084e-6
-0.279, -3.713e-6
-0.280, -2.998e-6
-0.281, -3.391e-6
-0.282, -4.134e-6
-0.283, -3.764e-6
-0.284, -3.049e-6
-0.285, -3.443e-6
-0.286, -4.184e-6
-0.287, -3.819e-6
-0.288, -3.100e-6
-0.289, -3.492e-6
-0.290, -4.235e-6
-0.291, -3.872e-6
-0.292, -3.154e-6
-0.293, -3.539e-6
-0.294, -4.288e-6
-0.295, -3.926e-6
-0.296, -3.203e-6
-0.297, -3.590e-6
-0.298, -4.337e-6
-0.299, -3.976e-6
-0.300, -3.254e-6
-0.301, -3.637e-6
-0.302, -4.385e-6
-0.303, -4.029e-6
-0.304, -3.303e-6
-0.305, -3.687e-6
-0.306, -4.435e-6
-0.307, -4.084e-6
-0.308, -3.356e-6
-0.309, -3.734e-6
-0.310, -4.487e-6
-0.311, -4.134e-6
-0.312, -3.404e-6
-0.313, -3.782e-6
-0.314, -4.536e-6
-0.315, -4.185e-6
-0.316, -3.458e-6
-0.317, -3.828e-6
-0.318, -4.586e-6
-0.319, -4.239e-6
-0.320, -3.508e-6
-0.321, -3.879e-6
-0.322, -4.638e-6
-0.323, -4.291e-6
-0.324, -3.558e-6
-0.325, -3.928e-6
-0.326, -4.687e-6
-0.327, -4.348e-6
-0.328, -3.607e-6
-0.329, -3.976e-6
-0.330, -4.738e-6
-0.331, -4.398e-6
-0.332, -3.659e-6
-0.333, -4.024e-6
-0.334, -4.787e-6
-0.335, -4.454e-6
-0.336, -3.713e-6
-0.337, -4.075e-6
-0.338, -4.843e-6
-0.339, -4.509e-6
-0.340, -3.767e-6
-0.341, -4.125e-6
-0.342, -4.895e-6
-0.343, -4.566e-6
-0.344, -3.821e-6
-0.345, -4.180e-6
-0.346, -4.953e-6
-0.347, -4.624e-6
-0.348, -3.879e-6
-0.349, -4.231e-6
-0.350, -5.007e-6
-0.351, -4.685e-6
-0.352, -3.935e-6
-0.353, -4.287e-6
-0.354, -5.064e-6
-0.355, -4.746e-6
-0.356, -3.993e-6
-0.357, -4.342e-6
-0.358, -5.126e-6
-0.359, -4.810e-6
-0.360, -4.053e-6
-0.361, -4.400e-6
-0.362, -5.185e-6
-0.363, -4.871e-6
-0.364, -4.116e-6
-0.365, -4.460e-6
-0.366, -5.246e-6
-0.367, -4.938e-6
-0.368, -4.178e-6
-0.369, -4.518e-6
-0.370, -5.311e-6
-0.371, -5.006e-6
-0.372, -4.243e-6
-0.373, -4.580e-6
-0.374, -5.375e-6
-0.375, -5.074e-6
-0.376, -4.307e-6
-0.377, -4.646e-6
-0.378, -5.442e-6
-0.379, -5.143e-6
-0.380, -4.376e-6
-0.381, -4.708e-6
-0.382, -5.509e-6
-0.383, -5.215e-6
-0.384, -4.440e-6
-0.385, -4.772e-6
-0.386, -5.576e-6
-0.387, -5.285e-6
-0.388, -4.514e-6
-0.389, -4.838e-6
-0.390, -5.646e-6
-0.391, -5.360e-6
-0.392, -4.584e-6
-0.393, -4.907e-6
-0.394, -5.718e-6
-0.395, -5.434e-6
-0.396, -4.657e-6
-0.397, -4.980e-6
-0.398, -5.790e-6
-0.399, -5.512e-6
-0.400, -4.564e-6
-0.399, -4.645e-6
-0.398, -5.342e-6
-0.397, -4.948e-6
-0.396, -4.078e-6
-0.395, -4.313e-6
-0.394, -5.032e-6
-0.393, -4.657e-6
-0.392, -3.806e-6
-0.391, -4.053e-6
-0.390, -4.777e-6
-0.389, -4.409e-6
-0.388, -3.568e-6
-0.387, -3.826e-6
-0.386, -4.552e-6
-0.385, -4.184e-6
-0.384, -3.362e-6
-0.383, -3.620e-6
-0.382, -4.348e-6
-0.381, -3.985e-6
-0.380, -3.163e-6
-0.379, -3.433e-6
-0.378, -4.162e-6
-0.377, -3.799e-6
-0.376, -2.983e-6
-0.375, -3.260e-6
-0.374, -3.990e-6
-0.373, -3.629e-6
-0.372, -2.819e-6
-0.371, -3.097e-6
-0.370, -3.829e-6
-0.369, -3.470e-6
-0.368, -2.666e-6
-0.367, -2.949e-6
-0.366, -3.680e-6
-0.365, -3.320e-6
-0.364, -2.524e-6
-0.363, -2.811e-6
-0.362, -3.538e-6
-0.361, -3.183e-6
-0.360, -2.390e-6
-0.359, -2.676e-6
-0.358, -3.407e-6
-0.357, -3.055e-6
-0.356, -2.265e-6
-0.355, -2.554e-6
-0.354, -3.284e-6
-0.353, -2.932e-6
-0.352, -2.147e-6
-0.351, -2.437e-6
-0.350, -3.167e-6
-0.349, -2.817e-6
-0.348, -2.034e-6
-0.347, -2.329e-6
-0.346, -3.054e-6
-0.345, -2.706e-6
-0.344, -1.929e-6
-0.343, -2.223e-6
-0.342, -2.952e-6
-0.341, -2.605e-6
-0.340, -1.829e-6
-0.339, -2.125e-6
-0.338, -2.851e-6
-0.337, -2.505e-6
-0.336, -1.737e-6
-0.335, -2.032e-6
-0.334, -2.756e-6
-0.333, -2.417e-6
-0.332, -1.648e-6
-0.331, -1.942e-6
-0.330, -2.666e-6
-0.329, -2.327e-6
-0.328, -1.562e-6
-0.327, -1.854e-6
-0.326, -2.580e-6
-0.325, -2.244e-6
-0.324, -1.479e-6
-0.323, -1.773e-6
-0.322, -2.498e-6
-0.321, -2.165e-6
-0.320, -1.400e-6
-0.319, -1.694e-6
-0.318, -2.419e-6
-0.317, -2.088e-6
-0.316, -1.325e-6
-0.315, -1.620e-6
-0.314, -2.344e-6
-0.313, -2.013e-6
-0.312, -1.257e-6
-0.311, -1.547e-6
-0.310, -2.272e-6
-0.309, -1.944e-6
-0.308, -1.188e-6
-0.307, -1.476e-6
-0.306, -2.201e-6
-0.305, -1.877e-6
-0.304, -1.122e-6
-0.303, -1.413e-6
-0.302, -2.136e-6
-0.301, -1.812e-6
-0.300, -1.058e-6
-0.299, -1.351e-6
-0.298, -2.072e-6
-0.297, -1.750e-6
-0.296, -9.993e-7
-0.295, -1.286e-6
-0.294, -2.009e-6
-0.293, -1.691e-6
-0.292, -9.400e-7
-0.291, -1.228e-6
-0.290, -1.952e-6
-0.289, -1.635e-6
-0.288, -8.857e-7
-0.287, -1.171e-6
-0.286, -1.893e-6
-0.285, -1.580e-6
-0.284, -8.309e-7
-0.283, -1.116e-6
-0.282, -1.843e-6
-0.281, -1.529e-6
-0.280, -7.803e-7
-0.279, -1.064e-6
-0.278, -1.787e-6
-0.277, -1.476e-6
-0.276, -7.292e-7
-0.275, -1.013e-6
-0.274, -1.736e-6
-0.273, -1.426e-6
-0.272, -6.829e-7
-0.271, -9.630e-7
-0.270, -1.687e-6
-0.269, -1.378e-6
-0.268, -6.327e-7
-0.267, -9.154e-7
-0.266, -1.639e-6
-0.265, -1.333e-6
-0.264, -5.901e-7
-0.263, -8.676e-7
-0.262, -1.592e-6
-0.261, -1.290e-6
-0.260, -5.452e-7
-0.259, -8.248e-7
-0.258, -1.546e-6
-0.257, -1.246e-6
-0.256, -5.020e-7
-0.255, -7.799e-7
-0.254, -1.503e-6
-0.253, -1.205e-6
-0.252, -4.624e-7
-0.251, -7.379e-7
-0.250, -1.462e-6
-0.249, -1.163e-6
-0.248, -4.227e-7
-0.247, -6.945e-7
-0.246, -1.421e-6
-0.245, -1.125e-6
-0.244, -3.848e-7
-0.243, -6.531e-7
-0.242, -1.380e-6
-0.241, -1.088e-6
-0.240, -3.460e-7
-0.239, -6.152e-7
-0.238, -1.342e-6
-0.237, -1.052e-6
-0.236, -3.076e-7
-0.235, -5.787e-7
-0.234, -1.304e-6
-0.233, -1.016e-6
-0.232, -2.746e-7
-0.231, -5.406e-7
-0.230, -1.270e-6
-0.229, -9.830e-7
-0.228, -2.380e-7
-0.227, -5.047e-7
-0.226, -1.231e-6
-0.225, -9.476e-7
-0.224, -2.061e-7
-0.223, -4.695e-7
-0.222, -1.196e-6
-0.221, -9.148e-7
-0.220, -1.723e-7
-0.219, -4.352e-7
-0.218, -1.160e-6
-0.217, -8.817e-7
-0.216, -1.411e-7
-0.215, -3.994e-7
-0.214, -1.128e-6
-0.213, -8.537e-7
-0.212, -1.084e-7
-0.211, -3.674e-7
-0.210, -1.096e-6
-0.209, -8.219e-7
-0.208, -8.134e-8
-0.207, -3.343e-7
-0.206, -1.065e-6
-0.205, -7.829e-7
-0.204, -4.449e-8
-0.203, -3.000e-7
-0.202, -1.032e-6
-0.201, -7.625e-7
-0.200, -1.961e-8
-0.199, -2.694e-7
-0.198, -1.002e-6
-0.197, -7.356e-7
-0.196, 9.341e-9
-0.195, -2.414e-7
-0.194, -9.717e-7
-0.193, -7.076e-7
-0.192, 3.669e-8
-0.191, -2.095e-7
-0.190, -9.434e-7
-0.189, -6.811e-7
-0.188, 6.393e-8
-0.187, -1.814e-7
-0.186, -9.160e-7
-0.185, -6.531e-7
-0.184, 8.983e-8
-0.183, -1.527e-7
-0.182, -8.882e-7
-0.181, -6.301e-7
-0.180, 1.179e-7
-0.179, -1.286e-7
-0.178, -8.606e-7
-0.177, -6.028e-7
-0.176, 1.400e-7
-0.175, -9.757e-8
-0.174, -8.326e-7
-0.173, -5.809e-7
-0.172, 1.655e-7
-0.171, -6.940e-8
-0.170, -8.094e-7
-0.169, -5.561e-7
-0.168, 1.907e-7
-0.167, -4.227e-8
-0.166, -7.809e-7
-0.165, -5.333e-7
-0.164, 2.162e-7
-0.163, -1.905e-8
-0.162, -7.557e-7
-0.161, -5.097e-7
-0.160, 2.377e-7
-0.159, 1.037e-8
-0.158, -7.336e-7
-0.157, -4.882e-7
-0.156, 2.620e-7
-0.155, 3.357e-8
-0.154, -7.070e-7
-0.153, -4.650e-7
-0.152, 2.835e-7
-0.151, 5.900e-8
-0.150, -6.837e-7
-0.149, -4.442e-7
-0.148, 3.086e-7
-0.147, 8.258e-8
-0.146, -6.611e-7
-0.145, -4.220e-7
-0.144, 3.276e-7
-0.143, 1.064e-7
-0.142, -6.365e-7
-0.141, -4.010e-7
-0.140, 3.523e-7
-0.139, 1.303e-7
-0.138, -6.143e-7
-0.137, -3.809e-7
-0.136, 3.697e-7
-0.135, 1.557e-7
-0.134, -5.905e-7
-0.133, -3.631e-7
-0.132, 3.926e-7
-0.131, 1.778e-7
-0.130, -5.691e-7
-0.129, -3.421e-7
-0.128, 4.084e-7
-0.127, 1.992e-7
-0.126, -5.494e-7
-0.125, -3.227e-7
-0.124, 4.325e-7
-0.123, 2.222e-7
-0.122, -5.263e-7
-0.121, -3.044e-7
-0.120, 4.521e-7
-0.119, 2.435e-7
-0.118, -5.033e-7
-0.117, -2.861e-7
-0.116, 4.722e-7
-0.115, 2.665e-7
-0.114, -4.844e-7
-0.113, -2.672e-7
-0.112, 4.889e-7
-0.111, 2.896e-7
-0.110, -4.634e-7
-0.109, -2.492e-7
-0.108, 5.105e-7
-0.107, 3.081e-7
-0.106, -4.427e-7
-0.105, -2.311e-7
-0.104, 5.268e-7
-0.103, 3.306e-7
-0.102, -4.192e-7
-0.101, -2.133e-7
-0.100, 5.456e-7
-0.099, 3.521e-7
-0.098, -4.024e-7
-0.097, -1.958e-7
-0.096, 5.640e-7
-0.095, 3.734e-7
-0.094, -3.851e-7
-0.093, -1.806e-7
-0.092, 5.848e-7
-0.091, 3.919e-7
-0.090, -3.628e-7
-0.089, -1.618e-7
-0.088, 6.006e-7
-0.087, 4.129e-7
-0.086, -3.458e-7
-0.085, -1.455e-7
-0.084, 6.193e-7
-0.083, 4.317e-7
-0.082, -3.274e-7
-0.081, -1.288e-7
-0.080, 6.353e-7
-0.079, 4.520e-7
-0.078, -3.093e-7
-0.077, -1.175e-7
-0.076, 6.526e-7
-0.075, 4.708e-7
-0.074, -2.905e-7
-0.073, -9.582e-8
-0.072, 6.688e-7
-0.071, 4.894e-7
-0.070, -2.699e-7
-0.069, -7.952e-8
-0.068, 6.873e-7
-0.067, 5.054e-7
-0.066, -2.523e-7
-0.065, -6.324e-8
-0.064, 7.018e-7
-0.063, 5.299e-7
-0.062, -2.347e-7
-0.061, -4.864e-8
-0.060, 7.198e-7
-0.059, 5.466e-7
-0.058, -2.150e-7
-0.057, -3.459e-8
-0.056, 7.362e-7
-0.055, 5.662e-7
-0.054, -1.979e-7
-0.053, -1.882e-8
-0.052, 7.508e-7
-0.051, 5.847e-7
-0.050, -1.813e-7
-0.049, -3.457e-9
-0.048, 7.666e-7
-0.047, 6.020e-7
-0.046, -1.619e-7
-0.045, 1.118e-8
-0.044, 7.837e-7
-0.043, 6.201e-7
-0.042, -1.471e-7
-0.041, 2.702e-8
-0.040, 7.980e-7
-0.039, 6.404e-7
-0.038, -1.265e-7
-0.037, 4.192e-8
-0.036, 8.150e-7
-0.035, 6.563e-7
-0.034, -1.105e-7
-0.033, 5.550e-8
-0.032, 8.302e-7
-0.031, 6.769e-7
-0.030, -9.414e-8
-0.029, 6.973e-8
-0.028, 8.485e-7
-0.027, 6.937e-7
-0.026, -7.935e-8
-0.025, 8.553e-8
-0.024, 8.595e-7
-0.023, 7.111e-7
-0.022, -6.087e-8
-0.021, 9.993e-8
-0.020, 8.769e-7
-0.019, 7.289e-7
-0.018, -4.391e-8
-0.017, 1.152e-7
-0.016, 8.913e-7
-0.015, 7.474e-7
-0.014, -2.605e-8
-0.013, 1.318e-7
-0.012, 9.082e-7
-0.011, 7.633e-7
-0.010, -8.050e-9
-0.009, 1.440e-7
-0.008, 9.217e-7
-0.007, 7.824e-7
-0.006, 9.779e-9
-0.005, 1.580e-7
-0.004, 9.365e-7
-0.003, 7.992e-7
-0.002, 2.554e-8
-0.001, 1.719e-7
-0.000, 9.389e-7
0.001, 8.149e-7
0.002, 4.092e-8
0.003, 1.823e-7
0.004, 9.674e-7
0.005, 8.323e-7
0.006, 5.741e-8
0.007, 1.999e-7
0.008, 9.823e-7
0.009, 8.519e-7
0.010, 7.517e-8
0.011, 2.138e-7
0.012, 9.975e-7
0.013, 8.700e-7
0.014, 9.233e-8
0.015, 2.291e-7
0.016, 1.011e-6
0.017, 8.873e-7
0.018, 1.085e-7
0.019, 2.449e-7
0.020, 1.026e-6
0.021, 9.045e-7
0.022, 1.246e-7
0.023, 2.591e-7
0.024, 1.041e-6
0.025, 9.212e-7
0.026, 1.395e-7
0.027, 2.712e-7
0.028, 1.057e-6
0.029, 9.374e-7
0.030, 1.598e-7
0.031, 2.875e-7
0.032, 1.071e-6
0.033, 9.558e-7
0.034, 1.763e-7
0.035, 3.007e-7
0.036, 1.087e-6
0.037, 9.724e-7
0.038, 1.953e-7
0.039, 3.162e-7
0.040, 1.101e-6
0.041, 9.916e-7
0.042, 2.112e-7
0.043, 3.285e-7
0.044, 1.118e-6
0.045, 1.008e-6
0.046, 2.278e-7
0.047, 3.441e-7
0.048, 1.131e-6
0.049, 1.026e-6
0.050, 2.447e-7
0.051, 3.586e-7
0.052, 1.148e-6
0.053, 1.044e-6
0.054, 2.606e-7
0.055, 3.739e-7
0.056, 1.161e-6
0.057, 1.062e-6
0.058, 2.768e-7
0.059, 3.894e-7
0.060, 1.178e-6
0.061, 1.075e-6
0.062, 2.951e-7
0.063, 4.055e-7
0.064, 1.192e-6
0.065, 1.095e-6
0.066, 3.139e-7
0.067, 4.186e-7
0.068, 1.205e-6
0.069, 1.114e-6
0.070, 3.323e-7
0.071, 4.320e-7
0.072, 1.221e-6
0.073, 1.132e-6
0.074, 3.479e-7
0.075, 4.468e-7
0.076, 1.238e-6
0.077, 1.144e-6
0.078, 3.633e-7
0.079, 4.638e-7
0.080, 1.253e-6
0.081, 1.164e-6
0.082, 3.827e-7
0.083, 4.782e-7
0.084, 1.268e-6
0.085, 1.182e-6
0.086, 4.001e-7
0.087, 4.930e-7
0.088, 1.280e-6
0.089, 1.202e-6
0.090, 4.194e-7
0.091, 5.062e-7
0.092, 1.299e-6
0.093, 1.219e-6
0.094, 4.345e-7
0.095, 5.239e-7
0.096, 1.313e-6
0.097, 1.237e-6
0.098, 4.534e-7
0.099, 5.372e-7
0.100, 1.330e-6
0.101, 1.255e-6
0.102, 4.714e-7
0.103, 5.569e-7
0.104, 1.344e-6
0.105, 1.272e-6
0.106, 4.891e-7
0.107, 5.689e-7
0.108, 1.361e-6
0.109, 1.289e-6
0.110, 5.059e-7
0.111, 5.879e-7
0.112, 1.375e-6
0.113, 1.306e-6
0.114, 5.252e-7
0.115, 6.033e-7
0.116, 1.392e-6
0.117, 1.327e-6
0.118, 5.434e-7
0.119, 6.161e-7
0.120, 1.405e-6
0.121, 1.348e-6
0.122, 5.595e-7
0.123, 6.321e-7
0.124, 1.423e-6
0.125, 1.213e-6
0.124, 2.372e-7
0.123, 2.350e-7
0.122, 9.666e-7
0.121, 8.548e-7
0.120, 4.076e-8
0.119, 7.597e-8
0.118, 8.250e-7
0.117, 7.252e-7
0.116, -7.919e-8
0.115, -3.171e-8
0.114, 7.235e-7
0.113, 6.288e-7
0.112, -1.657e-7
0.111, -1.123e-7
0.110, 6.428e-7
0.109, 5.509e-7
0.108, -2.396e-7
0.107, -1.814e-7
0.106, 5.739e-7
0.105, 4.842e-7
0.104, -2.989e-7
0.103, -2.418e-7
0.102, 5.142e-7
0.101, 4.273e-7
0.100, -3.553e-7
0.099, -2.914e-7
0.098, 4.636e-7
0.097, 3.762e-7
0.096, -4.034e-7
0.095, -3.372e-7
0.094, 4.169e-7
0.093, 3.309e-7
0.092, -4.465e-7
0.091, -3.774e-7
0.090, 3.749e-7
0.089, 2.853e-7
0.088, -4.848e-7
0.087, -4.164e-7
0.086, 3.362e-7
0.085, 2.495e-7
0.084, -5.213e-7
0.083, -4.510e-7
0.082, 3.016e-7
0.081, 2.151e-7
0.080, -5.530e-7
0.079, -4.822e-7
0.078, 2.681e-7
0.077, 1.864e-7
0.076, -5.812e-7
0.075, -5.142e-7
0.074, 2.401e-7
0.073, 1.533e-7
0.072, -6.112e-7
0.071, -5.396e-7
0.070, 2.105e-7
0.069, 1.250e-7
0.068, -6.377e-7
0.067, -5.653e-7
0.066, 1.832e-7
0.065, 9.823e-8
0.064, -6.629e-7
0.063, -5.938e-7
0.062, 1.576e-7
0.061, 7.598e-8
0.060, -6.875e-7
0.059, -6.164e-7
0.058, 1.348e-7
0.057, 5.090e-8
0.056, -7.086e-7
0.055, -6.375e-7
0.054, 1.121e-7
0.053, 2.880e-8
0.052, -7.306e-7
0.051, -6.601e-7
0.050, 9.149e-8
0.049, 6.100e-9
0.048, -7.501e-7
0.047, -6.788e-7
0.046, 6.860e-8
0.045, -1.265e-8
0.044, -7.704e-7
0.043, -7.003e-7
0.042, 5.032e-8
0.041, -3.328e-8
0.040, -7.883e-7
0.039, -7.179e-7
0.038, 2.845e-8
0.037, -5.072e-8
0.036, -8.082e-7
0.035, -7.382e-7
0.034, 1.269e-8
0.033, -6.865e-8
0.032, -8.245e-7
0.031, -7.559e-7
0.030, -3.759e-9
0.029, -8.785e-8
0.028, -8.427e-7
0.027, -7.706e-7
0.026, -2.019e-8
0.025, -1.026e-7
0.024, -8.580e-7
0.023, -7.897e-7
0.022, -4.078e-8
0.021, -1.169e-7
0.020, -8.764e-7
0.019, -8.068e-7
0.018, -5.548e-8
0.017, -1.356e-7
0.016, -8.913e-7
0.015, -8.219e-7
0.014, -7.200e-8
0.013, -1.531e-7
0.012, -9.088e-7
0.011, -8.386e-7
0.010, -8.737e-8
0.009, -1.662e-7
0.008, -9.231e-7
0.007, -8.547e-7
0.006, -1.049e-7
0.005, -1.802e-7
0.004, -9.389e-7
0.003, -8.700e-7
0.002, -1.184e-7
0.001, -1.973e-7
0.000, -9.416e-7
-0.001, -8.809e-7
-0.002, -1.313e-7
-0.003, -2.113e-7
-0.004, -9.673e-7
-0.005, -8.979e-7
-0.006, -1.477e-7
-0.007, -2.257e-7
-0.008, -9.812e-7
-0.009, -9.155e-7
-0.010, -1.639e-7
-0.011, -2.378e-7
-0.012, -9.978e-7
-0.013, -9.328e-7
-0.014, -1.784e-7
-0.015, -2.534e-7
-0.016, -1.010e-6
-0.017, -9.459e-7
-0.018, -1.930e-7
-0.019, -2.676e-7
-0.020, -1.026e-6
-0.021, -9.609e-7
-0.022, -2.078e-7
-0.023, -2.800e-7
-0.024, -1.041e-6
-0.025, -9.742e-7
-0.026, -2.195e-7
-0.027, -2.951e-7
-0.028, -1.055e-6
-0.029, -9.911e-7
-0.030, -2.359e-7
-0.031, -3.081e-7
-0.032, -1.069e-6
-0.033, -1.006e-6
-0.034, -2.519e-7
-0.035, -3.219e-7
-0.036, -1.084e-6
-0.037, -1.022e-6
-0.038, -2.667e-7
-0.039, -3.379e-7
-0.040, -1.099e-6
-0.041, -1.038e-6
-0.042, -2.806e-7
-0.043, -3.508e-7
-0.044, -1.115e-6
-0.045, -1.053e-6
-0.046, -2.956e-7
-0.047, -3.648e-7
-0.048, -1.128e-6
-0.049, -1.070e-6
-0.050, -3.102e-7
-0.051, -3.794e-7
-0.052, -1.145e-6
-0.053, -1.083e-6
-0.054, -3.255e-7
-0.055, -3.952e-7
-0.056, -1.158e-6
-0.057, -1.099e-6
-0.058, -3.411e-7
-0.059, -4.088e-7
-0.060, -1.175e-6
-0.061, -1.115e-6
-0.062, -3.569e-7
-0.063, -4.234e-7
-0.064, -1.191e-6
-0.065, -1.133e-6
-0.066, -3.714e-7
-0.067, -4.369e-7
-0.068, -1.204e-6
-0.069, -1.150e-6
-0.070, -3.886e-7
-0.071, -4.532e-7
-0.072, -1.222e-6
-0.073, -1.166e-6
-0.074, -4.037e-7
-0.075, -4.668e-7
-0.076, -1.237e-6
-0.077, -1.181e-6
-0.078, -4.178e-7
-0.079, -4.838e-7
-0.080, -1.253e-6
-0.081, -1.201e-6
-0.082, -4.352e-7
-0.083, -5.001e-7
-0.084, -1.273e-6
-0.085, -1.215e-6
-0.086, -4.524e-7
-0.087, -5.189e-7
-0.088, -1.288e-6
-0.089, -1.234e-6
-0.090, -4.714e-7
-0.091, -5.342e-7
-0.092, -1.306e-6
-0.093, -1.253e-6
-0.094, -4.867e-7
-0.095, -5.518e-7
-0.096, -1.322e-6
-0.097, -1.273e-6
-0.098, -5.052e-7
-0.099, -5.661e-7
-0.100, -1.342e-6
-0.101, -1.291e-6
-0.102, -5.259e-7
-0.103, -5.886e-7
-0.104, -1.359e-6
-0.105, -1.312e-6
-0.106, -5.427e-7
-0.107, -6.041e-7
-0.108, -1.381e-6
-0.109, -1.329e-6
-0.110, -5.621e-7
-0.111, -6.234e-7
-0.112, -1.399e-6
-0.113, -1.351e-6
-0.114, -5.824e-7
-0.115, -6.426e-7
-0.116, -1.420e-6
-0.117, -1.371e-6
-0.118, -6.012e-7
-0.119, -6.621e-7
-0.120, -1.440e-6
-0.121, -1.393e-6
-0.122, -6.230e-7
-0.123, -6.810e-7
-0.124, -1.462e-6
-0.125, -1.413e-6
-0.126, -6.436e-7
-0.127, -7.027e-7
-0.128, -1.479e-6
-0.129, -1.435e-6
-0.130, -6.631e-7
-0.131, -7.220e-7
-0.132, -1.506e-6
-0.133, -1.457e-6
-0.134, -6.866e-7
-0.135, -7.454e-7
-0.136, -1.527e-6
-0.137, -1.482e-6
-0.138, -7.088e-7
-0.139, -7.666e-7
-0.140, -1.552e-6
-0.141, -1.507e-6
-0.142, -7.325e-7
-0.143, -7.919e-7
-0.144, -1.574e-6
-0.145, -1.530e-6
-0.146, -7.566e-7
-0.147, -8.147e-7
-0.148, -1.598e-6
-0.149, -1.556e-6
-0.150, -7.826e-7
-0.151, -8.368e-7
-0.152, -1.624e-6
-0.153, -1.581e-6
-0.154, -8.075e-7
-0.155, -8.625e-7
-0.156, -1.650e-6
-0.157, -1.608e-6
-0.158, -8.336e-7
-0.159, -8.896e-7
-0.160, -1.675e-6
-0.161, -1.635e-6
-0.162, -8.606e-7
-0.163, -9.123e-7
-0.164, -1.704e-6
-0.165, -1.663e-6
-0.166, -8.879e-7
-0.167, -9.415e-7
-0.168, -1.730e-6
-0.169, -1.694e-6
-0.170, -9.143e-7
-0.171, -9.690e-7
-0.172, -1.759e-6
-0.173, -1.721e-6
-0.174, -9.438e-7
-0.175, -9.985e-7
-0.176, -1.789e-6
-0.177, -1.750e-6
-0.178, -9.728e-7
-0.179, -1.023e-6
-0.180, -1.818e-6
-0.181, -1.779e-6
-0.182, -1.003e-6
-0.183, -1.057e-6
-0.184, -1.849e-6
-0.185, -1.813e-6
-0.186, -1.035e-6
-0.187, -1.088e-6
-0.188, -1.880e-6
-0.189, -1.842e-6
-0.190, -1.065e-6
-0.191, -1.119e-6
-0.192, -1.913e-6
-0.193, -1.878e-6
-0.194, -1.098e-6
-0.195, -1.151e-6
-0.196, -1.944e-6
-0.197, -1.911e-6
-0.198, -1.131e-6
-0.199, -1.185e-6
-0.200, -1.978e-6
-0.201, -1.944e-6
-0.202, -1.166e-6
-0.203, -1.217e-6
-0.204, -2.014e-6
-0.205, -1.990e-6
-0.206, -1.203e-6
-0.207, -1.255e-6
-0.208, -2.050e-6
-0.209, -2.018e-6
-0.210, -1.237e-6
-0.211, -1.289e-6
-0.212, -2.086e-6
-0.213, -2.053e-6
-0.214, -1.272e-6
-0.215, -1.327e-6
-0.216, -2.120e-6
-0.217, -2.093e-6
-0.218, -1.311e-6
-0.219, -1.361e-6
-0.220, -2.160e-6
-0.221, -2.128e-6
-0.222, -1.347e-6
-0.223, -1.399e-6
-0.224, -2.199e-6
-0.225, -2.168e-6
-0.226, -1.386e-6
-0.227, -1.435e-6
-0.228, -2.238e-6
-0.229, -2.208e-6
-0.230, -1.421e-6
-0.231, -1.475e-6
-0.232, -2.274e-6
-0.233, -2.248e-6
-0.234, -1.462e-6
-0.235, -1.515e-6
-0.236, -2.316e-6
-0.237, -2.286e-6
-0.238, -1.504e-6
-0.239, -1.556e-6
-0.240, -2.356e-6
-0.241, -2.328e-6
-0.242, -1.544e-6
-0.243, -1.599e-6
-0.244, -2.399e-6
-0.245, -2.368e-6
-0.246, -1.588e-6
-0.247, -1.639e-6
-0.248, -2.439e-6
-0.249, -2.413e-6
-0.250, -1.630e-6
-0.251, -1.680e-6
-0.252, -2.483e-6
-0.253, -2.455e-6
-0.254, -1.673e-6
-0.255, -1.723e-6
-0.256, -2.527e-6
-0.257, -2.500e-6
-0.258, -1.715e-6
-0.259, -1.767e-6
-0.260, -2.570e-6
-0.261, -2.541e-6
-0.262, -1.760e-6
-0.263, -1.812e-6
-0.264, -2.613e-6
-0.265, -2.587e-6
-0.266, -1.805e-6
-0.267, -1.856e-6
-0.268, -2.660e-6
-0.269, -2.633e-6
-0.270, -1.850e-6
-0.271, -1.901e-6
-0.272, -2.702e-6
-0.273, -2.679e-6
-0.274, -1.896e-6
-0.275, -1.945e-6
-0.276, -2.750e-6
-0.277, -2.724e-6
-0.278, -1.941e-6
-0.279, -1.992e-6
-0.280, -2.795e-6
-0.281, -2.772e-6
-0.282, -1.985e-6
-0.283, -2.037e-6
-0.284, -2.843e-6
-0.285, -2.818e-6
-0.286, -2.033e-6
-0.287, -2.083e-6
-0.288, -2.890e-6
-0.289, -2.866e-6
-0.290, -2.080e-6
-0.291, -2.131e-6
-0.292, -2.937e-6
-0.293, -2.913e-6
-0.294, -2.130e-6
-0.295, -2.178e-6
-0.296, -2.986e-6
-0.297, -2.962e-6
-0.298, -2.177e-6
-0.299, -2.226e-6
-0.300, -3.035e-6
-0.301, -3.012e-6
-0.302, -2.225e-6
-0.303, -2.275e-6
-0.304, -3.081e-6
-0.305, -3.061e-6
-0.306, -2.273e-6
-0.307, -2.327e-6
-0.308, -3.134e-6
-0.309, -3.110e-6
-0.310, -2.321e-6
-0.311, -2.376e-6
-0.312, -3.181e-6
-0.313, -3.159e-6
-0.314, -2.373e-6
-0.315, -2.424e-6
-0.316, -3.234e-6
-0.317, -3.209e-6
-0.318, -2.423e-6
-0.319, -2.472e-6
-0.320, -3.285e-6
-0.321, -3.261e-6
-0.322, -2.473e-6
-0.323, -2.523e-6
-0.324, -3.334e-6
-0.325, -3.311e-6
-0.326, -2.523e-6
-0.327, -2.574e-6
-0.328, -3.384e-6
-0.329, -3.364e-6
-0.330, -2.575e-6
-0.331, -2.624e-6
-0.332, -3.437e-6
-0.333, -3.413e-6
-0.334, -2.626e-6
-0.335, -2.675e-6
-0.336, -3.488e-6
-0.337, -3.468e-6
-0.338, -2.680e-6
-0.339, -2.726e-6
-0.340, -3.541e-6
-0.341, -3.521e-6
-0.342, -2.731e-6
-0.343, -2.779e-6
-0.344, -3.593e-6
-0.345, -3.578e-6
-0.346, -2.786e-6
-0.347, -2.832e-6
-0.348, -3.650e-6
-0.349, -3.631e-6
-0.350, -2.838e-6
-0.351, -2.887e-6
-0.352, -3.704e-6
-0.353, -3.687e-6
-0.354, -2.892e-6
-0.355, -2.940e-6
-0.356, -3.760e-6
-0.357, -3.742e-6
-0.358, -2.947e-6
-0.359, -2.996e-6
-0.360, -3.816e-6
-0.361, -3.799e-6
-0.362, -3.004e-6
-0.363, -3.050e-6
-0.364, -3.874e-6
-0.365, -3.856e-6
-0.366, -3.059e-6
-0.367, -3.110e-6
-0.368, -3.930e-6
-0.369, -3.914e-6
-0.370, -3.117e-6
-0.371, -3.167e-6
-0.372, -3.989e-6
-0.373, -3.972e-6
-0.374, -3.175e-6
-0.375, -3.224e-6
-0.376, -4.048e-6
-0.377, -4.034e-6
-0.378, -3.235e-6
-0.379, -3.282e-6
-0.380, -4.110e-6
-0.381, -4.092e-6
-0.382, -3.295e-6
-0.383, -3.343e-6
-0.384, -4.166e-6
-0.385, -4.153e-6
-0.386, -3.355e-6
-0.387, -3.402e-6
-0.388, -4.231e-6
-0.389, -4.216e-6
-0.390, -3.419e-6
-0.391, -3.463e-6
-0.392, -4.293e-6
-0.393, -4.280e-6
-0.394, -3.479e-6
-0.395, -3.526e-6
-0.396, -4.357e-6
-0.397, -4.346e-6
-0.398, -3.542e-6
-0.399, -3.590e-6
-0.400, -4.265e-6
-0.399, -4.035e-6
-0.398, -3.136e-6
-0.397, -3.104e-6
-0.396, -3.856e-6
-0.395, -3.761e-6
-0.394, -2.894e-6
-0.393, -2.887e-6
-0.392, -3.649e-6
-0.391, -3.553e-6
-0.390, -2.695e-6
-0.389, -2.706e-6
-0.388, -3.468e-6
-0.387, -3.370e-6
-0.386, -2.524e-6
-0.385, -2.542e-6
-0.384, -3.312e-6
-0.383, -3.207e-6
-0.382, -2.368e-6
-0.381, -2.396e-6
-0.380, -3.161e-6
-0.379, -3.060e-6
-0.378, -2.224e-6
-0.377, -2.260e-6
-0.376, -3.027e-6
-0.375, -2.921e-6
-0.374, -2.092e-6
-0.373, -2.136e-6
-0.372, -2.901e-6
-0.371, -2.792e-6
-0.370, -1.969e-6
-0.369, -2.020e-6
-0.368, -2.785e-6
-0.367, -2.674e-6
-0.366, -1.856e-6
-0.365, -1.909e-6
-0.364, -2.677e-6
-0.363, -2.564e-6
-0.362, -1.748e-6
-0.361, -1.809e-6
-0.360, -2.574e-6
-0.359, -2.459e-6
-0.358, -1.646e-6
-0.357, -1.714e-6
-0.356, -2.476e-6
-0.355, -2.362e-6
-0.354, -1.552e-6
-0.353, -1.624e-6
-0.352, -2.386e-6
-0.351, -2.268e-6
-0.350, -1.464e-6
-0.349, -1.538e-6
-0.348, -2.300e-6
-0.347, -2.181e-6
-0.346, -1.378e-6
-0.345, -1.458e-6
-0.344, -2.220e-6
-0.343, -2.097e-6
-0.342, -1.299e-6
-0.341, -1.382e-6
-0.340, -2.141e-6
-0.339, -2.019e-6
-0.338, -1.223e-6
-0.337, -1.309e-6
-0.336, -2.068e-6
-0.335, -1.944e-6
-0.334, -1.150e-6
-0.333, -1.243e-6
-0.332, -1.999e-6
-0.331, -1.874e-6
-0.330, -1.082e-6
-0.329, -1.174e-6
-0.328, -1.933e-6
-0.327, -1.805e-6
-0.326, -1.015e-6
-0.325, -1.113e-6
-0.324, -1.868e-6
-0.323, -1.741e-6
-0.322, -9.521e-7
-0.321, -1.052e-6
-0.320, -1.807e-6
-0.319, -1.676e-6
-0.318, -8.914e-7
-0.317, -9.959e-7
-0.316, -1.749e-6
-0.315, -1.618e-6
-0.314, -8.334e-7
-0.313, -9.389e-7
-0.312, -1.695e-6
-0.311, -1.560e-6
-0.310, -7.780e-7
-0.309, -8.872e-7
-0.308, -1.638e-6
-0.307, -1.502e-6
-0.306, -7.246e-7
-0.305, -8.345e-7
-0.304, -1.589e-6
-0.303, -1.452e-6
-0.302, -6.745e-7
-0.301, -7.849e-7
-0.300, -1.539e-6
-0.299, -1.402e-6
-0.298, -6.251e-7
-0.297, -7.385e-7
-0.296, -1.492e-6
-0.295, -1.352e-6
-0.294, -5.767e-7
-0.293, -6.942e-7
-0.292, -1.444e-6
-0.291, -1.305e-6
-0.290, -5.330e-7
-0.289, -6.495e-7
-0.288, -1.401e-6
-0.287, -1.259e-6
-0.286, -4.887e-7
-0.285, -6.089e-7
-0.284, -1.358e-6
-0.283, -1.217e-6
-0.282, -4.478e-7
-0.281, -5.685e-7
-0.280, -1.318e-6
-0.279, -1.175e-6
-0.278, -4.062e-7
-0.277, -5.295e-7
-0.276, -1.276e-6
-0.275, -1.135e-6
-0.274, -3.662e-7
-0.273, -4.909e-7
-0.272, -1.239e-6
-0.271, -1.093e-6
-0.270, -3.286e-7
-0.269, -4.526e-7
-0.268, -1.199e-6
-0.267, -1.055e-6
-0.266, -2.923e-7
-0.265, -4.162e-7
-0.264, -1.167e-6
-0.263, -1.018e-6
-0.262, -2.558e-7
-0.261, -3.846e-7
-0.260, -1.130e-6
-0.259, -9.827e-7
-0.258, -2.202e-7
-0.257, -3.503e-7
-0.256, -1.096e-6
-0.255, -9.472e-7
-0.254, -1.859e-7
-0.253, -3.182e-7
-0.252, -1.064e-6
-0.251, -9.143e-7
-0.250, -1.533e-7
-0.249, -2.853e-7
-0.248, -1.033e-6
-0.247, -8.805e-7
-0.246, -1.221e-7
-0.245, -2.570e-7
-0.244, -1.001e-6
-0.243, -8.486e-7
-0.242, -9.028e-8
-0.241, -2.262e-7
-0.240, -9.716e-7
-0.239, -8.169e-7
-0.238, -6.085e-8
-0.237, -1.968e-7
-0.236, -9.422e-7
-0.235, -7.891e-7
-0.234, -3.154e-8
-0.233, -1.683e-7
-0.232, -9.153e-7
-0.231, -7.603e-7
-0.230, -5.092e-9
-0.229, -1.426e-7
-0.228, -8.857e-7
-0.227, -7.326e-7
-0.226, 2.517e-8
-0.225, -1.157e-7
-0.224, -8.590e-7
-0.223, -7.025e-7
-0.222, 5.046e-8
-0.221, -8.954e-8
-0.220, -8.321e-7
-0.219, -6.779e-7
-0.218, 7.859e-8
-0.217, -6.374e-8
-0.216, -8.079e-7
-0.215, -6.473e-7
-0.214, 1.041e-7
-0.213, -4.048e-8
-0.212, -7.811e-7
-0.211, -6.241e-7
-0.210, 1.290e-7
-0.209, -1.542e-8
-0.208, -7.575e-7
-0.207, -5.991e-7
-0.206, 1.545e-7
-0.205, 1.688e-8
-0.204, -7.283e-7
-0.203, -5.744e-7
-0.202, 1.792e-7
-0.201, 3.444e-8
-0.200, -7.090e-7
-0.199, -5.499e-7
-0.198, 2.015e-7
-0.197, 5.569e-8
-0.196, -6.862e-7
-0.195, -5.271e-7
-0.194, 2.244e-7
-0.193, 7.700e-8
-0.192, -6.627e-7
-0.191, -5.036e-7
-0.190, 2.480e-7
-0.189, 9.856e-8
-0.188, -6.413e-7
-0.187, -4.818e-7
-0.186, 2.694e-7
-0.185, 1.205e-7
-0.184, -6.220e-7
-0.183, -4.598e-7
-0.182, 2.919e-7
-0.181, 1.400e-7
-0.180, -5.992e-7
-0.179, -4.425e-7
-0.178, 3.122e-7
-0.177, 1.615e-7
-0.176, -5.823e-7
-0.175, -4.172e-7
-0.174, 3.323e-7
-0.173, 1.806e-7
-0.172, -5.590e-7
-0.171, -3.972e-7
-0.170, 3.529e-7
-0.169, 2.032e-7
-0.168, -5.423e-7
-0.167, -3.753e-7
-0.166, 3.760e-7
-0.165, 2.201e-7
-0.164, -5.219e-7
-0.163, -3.562e-7
-0.162, 3.940e-7
-0.161, 2.392e-7
-0.160, -5.034e-7
-0.159, -3.367e-7
-0.158, 4.134e-7
-0.157, 2.577e-7
-0.156, -4.840e-7
-0.155, -3.186e-7
-0.154, 4.321e-7
-0.153, 2.776e-7
-0.152, -4.656e-7
-0.151, -2.980e-7
-0.150, 4.505e-7
-0.149, 2.941e-7
-0.148, -4.461e-7
-0.147, -2.797e-7
-0.146, 4.679e-7
-0.145, 3.131e-7
-0.144, -4.288e-7
-0.143, -2.623e-7
-0.142, 4.882e-7
-0.141, 3.302e-7
-0.140, -4.108e-7
-0.139, -2.442e-7
-0.138, 5.053e-7
-0.137, 3.476e-7
-0.136, -3.942e-7
-0.135, -2.257e-7
-0.134, 5.232e-7
-0.133, 3.644e-7
-0.132, -3.775e-7
-0.131, -2.097e-7
-0.130, 5.394e-7
-0.129, 3.828e-7
-0.128, -3.658e-7
-0.127, -1.918e-7
-0.126, 5.575e-7
-0.125, 3.947e-7
-0.124, -3.423e-7
-0.123, -1.744e-7
-0.122, 5.725e-7
-0.121, 4.155e-7
-0.120, -3.285e-7
-0.119, -1.578e-7
-0.118, 5.893e-7
-0.117, 4.305e-7
-0.116, -3.114e-7
-0.115, -1.404e-7
-0.114, 6.075e-7
-0.113, 4.472e-7
-0.112, -2.972e-7
-0.111, -1.243e-7
-0.110, 6.236e-7
-0.109, 4.624e-7
-0.108, -2.785e-7
-0.107, -1.092e-7
-0.106, 6.390e-7
-0.105, 4.780e-7
-0.104, -2.644e-7
-0.103, -9.071e-8
-0.102, 6.576e-7
-0.101, 4.944e-7
-0.100, -2.469e-7
-0.099, -7.766e-8
-0.098, 6.715e-7
-0.097, 5.096e-7
-0.096, -2.334e-7
-0.095, -6.106e-8
-0.094, 6.878e-7
-0.093, 5.245e-7
-0.092, -2.164e-7
-0.091, -4.710e-8
-0.090, 7.042e-7
-0.089, 5.408e-7
-0.088, -2.038e-7
-0.087, -2.948e-8
-0.086, 7.181e-7
-0.085, 5.556e-7
-0.084, -1.886e-7
-0.083, -1.520e-8
-0.082, 7.335e-7
-0.081, 5.708e-7
-0.080, -1.735e-7
-0.079, 2.149e-9
-0.078, 7.479e-7
-0.077, 5.805e-7
-0.076, -1.588e-7
-0.075, 1.452e-8
-0.074, 7.617e-7
-0.073, 5.995e-7
-0.072, -1.441e-7
-0.071, 2.964e-8
-0.070, 7.774e-7
-0.069, 6.137e-7
-0.068, -1.284e-7
-0.067, 4.371e-8
-0.066, 7.934e-7
-0.065, 6.294e-7
-0.064, -1.140e-7
-0.063, 6.096e-8
-0.062, 8.065e-7
-0.061, 6.430e-7
-0.060, -9.870e-8
-0.059, 7.390e-8
-0.058, 8.210e-7
-0.057, 6.591e-7
-0.056, -8.601e-8
-0.055, 8.895e-8
-0.054, 8.362e-7
-0.053, 6.721e-7
-0.052, -7.048e-8
-0.051, 1.043e-7
-0.050, 8.518e-7
-0.049, 6.880e-7
-0.048, -5.636e-8
-0.047, 1.179e-7
-0.046, 8.657e-7
-0.045, 7.016e-7
-0.044, -4.237e-8
-0.043, 1.314e-7
-0.042, 8.804e-7
-0.041, 7.165e-7
-0.040, -2.921e-8
-0.039, 1.482e-7
-0.038, 8.947e-7
-0.037, 7.308e-7
-0.036, -1.290e-8
-0.035, 1.607e-7
-0.034, 9.088e-7
-0.033, 7.460e-7
-0.032, -4.107e-10
-0.031, 1.757e-7
-0.030, 9.235e-7
-0.029, 7.590e-7
-0.028, 1.490e-8
-0.027, 1.895e-7
-0.026, 9.349e-7
-0.025, 7.728e-7
-0.024, 2.818e-8
-0.023, 2.037e-7
-0.022, 9.519e-7
-0.021, 7.865e-7
-0.020, 4.287e-8
-0.019, 2.176e-7
-0.018, 9.655e-7
-0.017, 8.015e-7
-0.016, 5.674e-8
-0.015, 2.328e-7
-0.014, 9.808e-7
-0.013, 8.166e-7
-0.012, 7.286e-8
-0.011, 2.469e-7
-0.010, 9.956e-7
-0.009, 8.293e-7
-0.008, 8.576e-8
-0.007, 2.632e-7
-0.006, 1.009e-6
-0.005, 8.430e-7
-0.004, 1.027e-7
-0.003, 2.753e-7
-0.002, 1.023e-6
-0.001, 8.584e-7
-0.000, 1.032e-7
0.001, 2.866e-7
0.002, 1.036e-6
0.003, 8.713e-7
0.004, 1.284e-7
0.005, 3.015e-7
0.006, 1.052e-6
0.007, 8.883e-7
0.008, 1.422e-7
0.009, 3.188e-7
0.010, 1.065e-6
0.011, 9.011e-7
0.012, 1.585e-7
0.013, 3.344e-7
0.014, 1.080e-6
0.015, 9.159e-7
0.016, 1.719e-7
0.017, 3.472e-7
0.018, 1.096e-6
0.019, 9.312e-7
0.020, 1.891e-7
0.021, 3.611e-7
0.022, 1.109e-6
0.023, 9.469e-7
0.024, 2.011e-7
0.025, 3.746e-7
0.026, 1.122e-6
0.027, 9.594e-7
0.028, 2.170e-7
0.029, 3.895e-7
0.030, 1.139e-6
0.031, 9.747e-7
0.032, 2.311e-7
0.033, 4.072e-7
0.034, 1.153e-6
0.035, 9.900e-7
0.036, 2.462e-7
0.037, 4.207e-7
0.038, 1.170e-6
0.039, 1.005e-6
0.040, 2.616e-7
0.041, 4.374e-7
0.042, 1.183e-6
0.043, 1.018e-6
0.044, 2.778e-7
0.045, 4.512e-7
0.046, 1.200e-6
0.047, 1.034e-6
0.048, 2.914e-7
0.049, 4.657e-7
0.050, 1.214e-6
0.051, 1.050e-6
0.052, 3.075e-7
0.053, 4.809e-7
0.054, 1.230e-6
0.055, 1.064e-6
0.056, 3.215e-7
0.057, 4.987e-7
0.058, 1.244e-6
0.059, 1.080e-6
0.060, 3.380e-7
0.061, 5.132e-7
0.062, 1.258e-6
0.063, 1.096e-6
0.064, 3.542e-7
0.065, 5.271e-7
0.066, 1.276e-6
0.067, 1.111e-6
0.068, 3.706e-7
0.069, 5.419e-7
0.070, 1.290e-6
0.071, 1.128e-6
0.072, 3.844e-7
0.073, 5.585e-7
0.074, 1.306e-6
0.075, 1.142e-6
0.076, 4.017e-7
0.077, 5.688e-7
0.078, 1.320e-6
0.079, 1.157e-6
0.080, 4.152e-7
0.081, 5.904e-7
0.082, 1.335e-6
0.083, 1.172e-6
0.084, 4.336e-7
0.085, 6.051e-7
0.086, 1.351e-6
0.087, 1.190e-6
0.088, 4.492e-7
0.089, 6.218e-7
0.090, 1.369e-6
0.091, 1.206e-6
0.092, 4.664e-7
0.093, 6.364e-7
0.094, 1.383e-6
0.095, 1.223e-6
0.096, 4.815e-7
0.097, 6.540e-7
0.098, 1.399e-6
0.099, 1.237e-6
0.100, 4.987e-7
0.101, 6.695e-7
0.102, 1.416e-6
0.103, 1.257e-6
0.104, 5.153e-7
0.105, 6.870e-7
0.106, 1.431e-6
0.107, 1.271e-6
0.108, 5.328e-7
0.109, 7.020e-7
0.110, 1.446e-6
0.111, 1.288e-6
0.112, 5.486e-7
0.113, 7.206e-7
0.114, 1.462e-6
0.115, 1.305e-6
0.116, 5.666e-7
0.117, 7.363e-7
0.118, 1.478e-6
0.119, 1.321e-6
0.120, 5.823e-7
0.121, 7.526e-7
0.122, 1.496e-6
0.123, 1.336e-6
0.124, 5.998e-7
